Normalizing time for Velocity profile from 1.0009s to 1.0s
Converting flow rate (ml/s) to velocity (m/s) with vessel radius 1.0 mm
Conversion factor: 3.183099e-01
  Column CCA: min=1.1497 m/s, max=4.1824 m/s
  Column ICA: min=0.9855 m/s, max=2.3363 m/s
Converting velocity to lattice units with dx=0.01 m and dt=1e-05 s
Conversion factor: 1.000000e-03
  Column CCA: min=0.0011 LU/step, max=0.0042 LU/step
  Column ICA: min=0.0010 LU/step, max=0.0023 LU/step
Resampling Velocity profile from 201 to 64 points
Normalizing time for velocity_profile_normalized from 1.0000s to 1.0s
Converting flow rate (ml/s) to velocity (m/s) with vessel radius 1.0 mm
Conversion factor: 3.183099e-01
  Column CCA: min=1.1497 m/s, max=4.1824 m/s
  Column ICA: min=0.9855 m/s, max=2.3363 m/s
Converting velocity to lattice units with dx=0.01 m and dt=1e-05 s
Conversion factor: 1.000000e-03
  Column CCA: min=0.0011 LU/step, max=0.0042 LU/step
  Column ICA: min=0.0010 LU/step, max=0.0023 LU/step
Resampling velocity_profile_normalized from 201 to 64 points
Available flow profiles:
0: None (default to sinusoidal with 1Hz oscillation)
1: Velocity profile
2: velocity_profile_normalized
Select a flow profile by index: {'x': array([0.00000000e+00, 1.53854300e-04, 8.20323154e-03, 1.52355719e-02,
       1.60298198e-02, 1.99231328e-02, 2.29792387e-02, 2.53939519e-02,
       2.82072877e-02, 2.89365970e-02, 3.24282904e-02, 3.29098344e-02,
       3.50857738e-02, 3.68830717e-02, 3.82907387e-02, 4.04786667e-02,
       4.08573081e-02, 4.38404831e-02, 4.48305455e-02, 4.64979664e-02,
       4.78117223e-02, 4.97029313e-02, 5.17350069e-02, 5.17849596e-02,
       5.48620456e-02, 5.57581970e-02, 5.78322329e-02, 5.87403729e-02,
       6.08024201e-02, 6.27136102e-02, 6.36167549e-02, 6.76789081e-02,
       6.80715363e-02, 7.16661322e-02, 7.26442059e-02, 7.68242474e-02,
       8.05856854e-02, 8.26057723e-02, 9.06521524e-02, 9.64606518e-02,
       9.87764587e-02, 1.05883728e-01, 1.08360383e-01, 1.11350551e-01,
       1.15299811e-01, 1.15723410e-01, 1.20487898e-01, 1.22239239e-01,
       1.24938683e-01, 1.28185608e-01, 1.28765059e-01, 1.33293771e-01,
       1.34132976e-01, 1.37510777e-01, 1.39088283e-01, 1.41727784e-01,
       1.45035651e-01, 1.45787939e-01, 1.50395575e-01, 1.50982020e-01,
       1.54768434e-01, 1.57921448e-01, 1.59766701e-01, 1.64608116e-01,
       1.64860877e-01, 1.69997013e-01, 1.71800305e-01, 1.75541762e-01,
       1.80723855e-01, 1.81711919e-01, 1.87882076e-01, 1.91631525e-01,
       1.95536827e-01, 2.01784910e-01, 2.04524315e-01, 2.07720289e-01,
       2.14750631e-01, 2.21385348e-01, 2.24123755e-01, 2.31466801e-01,
       2.40996776e-01, 2.44200742e-01, 2.48573601e-01, 2.58963761e-01,
       2.66541585e-01, 2.68011193e-01, 2.75837782e-01, 2.83259753e-01,
       2.87854402e-01, 2.93025505e-01, 3.00681255e-01, 3.09682730e-01,
       3.09743673e-01, 3.17399423e-01, 3.27633731e-01, 3.33491184e-01,
       3.34741999e-01, 3.45288012e-01, 3.52708985e-01, 3.53329397e-01,
       3.61222922e-01, 3.69659932e-01, 3.74159671e-01, 3.78642426e-01,
       3.86688806e-01, 3.96374633e-01, 3.97968124e-01, 4.03795606e-01,
       4.13404506e-01, 4.19795454e-01, 4.21217107e-01, 4.29732044e-01,
       4.38325905e-01, 4.39639661e-01, 4.47545175e-01, 4.55591555e-01,
       4.62458052e-01, 4.65044603e-01, 4.72152871e-01, 4.82152402e-01,
       4.84280386e-01, 4.90276708e-01, 4.99884609e-01, 5.07095780e-01,
       5.08164768e-01, 5.18008446e-01, 5.25742122e-01, 5.29911174e-01,
       5.35194171e-01, 5.42381365e-01, 5.52770526e-01, 5.53719628e-01,
       5.60738980e-01, 5.70191029e-01, 5.77528081e-01, 5.78237409e-01,
       5.88236940e-01, 5.96673950e-01, 6.02328595e-01, 6.05344739e-01,
       6.14015527e-01, 6.23624428e-01, 6.26137048e-01, 6.31513956e-01,
       6.41435561e-01, 6.48310050e-01, 6.49945502e-01, 6.59089842e-01,
       6.66745592e-01, 6.74746016e-01, 6.76745122e-01, 6.84400872e-01,
       6.94321478e-01, 6.99547528e-01, 7.02367858e-01, 7.12289462e-01,
       7.19866287e-01, 7.23355982e-01, 7.29631039e-01, 7.38068050e-01,
       7.47520098e-01, 7.48157495e-01, 7.55488552e-01, 7.64862675e-01,
       7.72831129e-01, 7.72958009e-01, 7.82440029e-01, 7.90798114e-01,
       7.97759522e-01, 8.00172237e-01, 8.08765099e-01, 8.17905444e-01,
       8.22560036e-01, 8.26264527e-01, 8.35638650e-01, 8.44622143e-01,
       8.47361549e-01, 8.52902302e-01, 8.61574089e-01, 8.71104064e-01,
       8.72163062e-01, 8.79150445e-01, 8.89071050e-01, 8.95972514e-01,
       8.97585986e-01, 9.06960109e-01, 9.15006489e-01, 9.20773028e-01,
       9.24693315e-01, 9.32739696e-01, 9.41957966e-01, 9.45574541e-01,
       9.49925421e-01, 9.59065765e-01, 9.68127184e-01, 9.70376054e-01,
       9.76720046e-01, 9.85469760e-01, 9.94375327e-01, 9.95176568e-01,
       1.00000000e+00]), 'y': {'CCA': array([0.00117342, 0.00117453, 0.00123593, 0.00130886, 0.00132048,
       0.00140585, 0.00151506, 0.00159324, 0.0016829 , 0.00170961,
       0.00188557, 0.00191231, 0.00202079, 0.00210689, 0.00217807,
       0.00229069, 0.00230956, 0.00245675, 0.00251226, 0.0026266 ,
       0.00271493, 0.0028136 , 0.00290722, 0.00290951, 0.00306068,
       0.00311218, 0.00325399, 0.00331488, 0.00342963, 0.00351755,
       0.00355508, 0.00371213, 0.00372738, 0.00386902, 0.00390671,
       0.00403544, 0.0041013 , 0.00412581, 0.00418218, 0.00418237,
       0.0041684 , 0.00406246, 0.00400402, 0.0039239 , 0.00380944,
       0.00379744, 0.00366553, 0.00361489, 0.00352958, 0.0034203 ,
       0.00340101, 0.00324823, 0.00321764, 0.00308302, 0.00302305,
       0.00293491, 0.00282847, 0.00280294, 0.00264445, 0.0026258 ,
       0.00251669, 0.00243122, 0.00238035, 0.0022438 , 0.00223667,
       0.00209598, 0.0020502 , 0.00196222, 0.00185562, 0.00183732,
       0.00173396, 0.00167727, 0.00162134, 0.00153954, 0.00150704,
       0.00147183, 0.00140664, 0.00136112, 0.00134651, 0.00131736,
       0.00129823, 0.00129625, 0.00129714, 0.00131408, 0.00133884,
       0.00134492, 0.00138439, 0.00142966, 0.00145843, 0.00148896,
       0.0015269 , 0.00155574, 0.00155587, 0.00156459, 0.00155571,
       0.00153954, 0.00153486, 0.00147915, 0.0014301 , 0.00142603,
       0.00137793, 0.00133706, 0.00132067, 0.00130829, 0.00129629,
       0.00130125, 0.00130447, 0.00132258, 0.00137036, 0.00140986,
       0.00141896, 0.00147225, 0.00151757, 0.00152337, 0.00155112,
       0.00156554, 0.00156392, 0.00155911, 0.00153508, 0.00148568,
       0.00147476, 0.00144586, 0.00140703, 0.00138557, 0.00138309,
       0.00136682, 0.0013582 , 0.00135317, 0.00134537, 0.00133299,
       0.00131427, 0.00131265, 0.00130151, 0.00128871, 0.00128021,
       0.00127945, 0.00126929, 0.00126127, 0.00125592, 0.001253  ,
       0.00124431, 0.00123428, 0.0012316 , 0.00122581, 0.00121543,
       0.00120878, 0.00120729, 0.0011999 , 0.00119494, 0.00119108,
       0.00119035, 0.00118809, 0.0011852 , 0.001183  , 0.00118147,
       0.00117463, 0.00116909, 0.0011668 , 0.00116342, 0.0011603 ,
       0.00115874, 0.00115871, 0.00115878, 0.00115928, 0.00115874,
       0.00115871, 0.00115591, 0.0011527 , 0.00115063, 0.00115018,
       0.00114967, 0.00115024, 0.00115063, 0.00115085, 0.00115107,
       0.00115082, 0.00115063, 0.00115021, 0.00114974, 0.00115044,
       0.00115066, 0.00115279, 0.00115671, 0.00115878, 0.00115906,
       0.00115963, 0.00115919, 0.00115878, 0.00115862, 0.00115858,
       0.00115874, 0.00115881, 0.00115884, 0.00115887, 0.00115881,
       0.00115881, 0.00115881, 0.00115881, 0.00115881, 0.00115884,
       0.00115884]), 'ICA': array([0.00101092, 0.00101089, 0.00102177, 0.00107286, 0.00107968,
       0.00111755, 0.0011575 , 0.00119287, 0.00124523, 0.00125955,
       0.00132567, 0.00133467, 0.00138121, 0.00142857, 0.0014655 ,
       0.00151592, 0.00152515, 0.0015989 , 0.00162045, 0.00165508,
       0.00168609, 0.00173425, 0.00179107, 0.00179247, 0.00187087,
       0.00188901, 0.00193026, 0.00195331, 0.00200879, 0.00204581,
       0.00206176, 0.00213751, 0.00214414, 0.00219328, 0.00220789,
       0.00226735, 0.00229762, 0.00230819, 0.0023363 , 0.00232293,
       0.00231013, 0.00225714, 0.00223734, 0.00220799, 0.00215002,
       0.00214414, 0.00208799, 0.00206344, 0.00202095, 0.00197107,
       0.00196222, 0.00189328, 0.0018814 , 0.00183324, 0.00180746,
       0.0017643 , 0.0017198 , 0.00170942, 0.00164047, 0.00163245,
       0.00158429, 0.00154049, 0.00151662, 0.00146493, 0.00146187,
       0.00139789, 0.00138146, 0.00135256, 0.00130316, 0.00129383,
       0.0012466 , 0.00122291, 0.00119936, 0.00115594, 0.00112774,
       0.00109658, 0.00106529, 0.00105147, 0.00104552, 0.00102445,
       0.00100338, 0.00099787, 0.00099252, 0.00098552, 0.00099255,
       0.00099443, 0.00100468, 0.00102193, 0.00103346, 0.00104683,
       0.00106853, 0.00108821, 0.00108833, 0.00110237, 0.0011145 ,
       0.00111389, 0.00111259, 0.00109919, 0.00108515, 0.00108397,
       0.00106729, 0.00103982, 0.0010291 , 0.00101942, 0.00099962,
       0.00098749, 0.00098619, 0.00098558, 0.00099516, 0.00100366,
       0.00100602, 0.00102327, 0.00104498, 0.00104912, 0.00107436,
       0.00109031, 0.00110361, 0.00110756, 0.0011082 , 0.00110883,
       0.0011088 , 0.0011031 , 0.0010833 , 0.00108146, 0.00108139,
       0.00107757, 0.00108079, 0.00107964, 0.00107694, 0.0010763 ,
       0.0010757 , 0.00107579, 0.00107633, 0.00107121, 0.00106987,
       0.00106994, 0.0010706 , 0.00106806, 0.00106758, 0.00106806,
       0.00106933, 0.00106487, 0.00106392, 0.00106169, 0.00105657,
       0.00106296, 0.00106303, 0.00105914, 0.00105914, 0.0010573 ,
       0.00105723, 0.00105914, 0.00105341, 0.00105447, 0.00105532,
       0.00105278, 0.00105087, 0.00105131, 0.00105214, 0.00105023,
       0.00104769, 0.00104772, 0.00104896, 0.00104641, 0.00104323,
       0.00104323, 0.00104387, 0.00104323, 0.00104129, 0.00104068,
       0.00103941, 0.00103814, 0.0010388 , 0.0010388 , 0.00103495,
       0.00103435, 0.00103416, 0.00103435, 0.00103562, 0.00102859,
       0.00102846, 0.00103116, 0.00102735, 0.00102544, 0.00102544,
       0.00102671, 0.00102671, 0.00102368, 0.00102162, 0.00102034,
       0.00101971, 0.0010199 , 0.00101971, 0.00101716, 0.0010178 ,
       0.00101748, 0.00101525, 0.00101334, 0.00101398, 0.00101385,
       0.00101079])}, 'original_duration': np.float64(1.000947), 'original_points': 201, 'units': 'LU/step'}
Available columns:
0: CCA
1: ICA
Select a y column by index: Using flow profile: Velocity profile_CCA (units: LU/step)
{'name': 'Velocity profile_CCA', 'data': {'x': array([0.00000000e+00, 1.53854300e-04, 8.20323154e-03, 1.52355719e-02,
       1.60298198e-02, 1.99231328e-02, 2.29792387e-02, 2.53939519e-02,
       2.82072877e-02, 2.89365970e-02, 3.24282904e-02, 3.29098344e-02,
       3.50857738e-02, 3.68830717e-02, 3.82907387e-02, 4.04786667e-02,
       4.08573081e-02, 4.38404831e-02, 4.48305455e-02, 4.64979664e-02,
       4.78117223e-02, 4.97029313e-02, 5.17350069e-02, 5.17849596e-02,
       5.48620456e-02, 5.57581970e-02, 5.78322329e-02, 5.87403729e-02,
       6.08024201e-02, 6.27136102e-02, 6.36167549e-02, 6.76789081e-02,
       6.80715363e-02, 7.16661322e-02, 7.26442059e-02, 7.68242474e-02,
       8.05856854e-02, 8.26057723e-02, 9.06521524e-02, 9.64606518e-02,
       9.87764587e-02, 1.05883728e-01, 1.08360383e-01, 1.11350551e-01,
       1.15299811e-01, 1.15723410e-01, 1.20487898e-01, 1.22239239e-01,
       1.24938683e-01, 1.28185608e-01, 1.28765059e-01, 1.33293771e-01,
       1.34132976e-01, 1.37510777e-01, 1.39088283e-01, 1.41727784e-01,
       1.45035651e-01, 1.45787939e-01, 1.50395575e-01, 1.50982020e-01,
       1.54768434e-01, 1.57921448e-01, 1.59766701e-01, 1.64608116e-01,
       1.64860877e-01, 1.69997013e-01, 1.71800305e-01, 1.75541762e-01,
       1.80723855e-01, 1.81711919e-01, 1.87882076e-01, 1.91631525e-01,
       1.95536827e-01, 2.01784910e-01, 2.04524315e-01, 2.07720289e-01,
       2.14750631e-01, 2.21385348e-01, 2.24123755e-01, 2.31466801e-01,
       2.40996776e-01, 2.44200742e-01, 2.48573601e-01, 2.58963761e-01,
       2.66541585e-01, 2.68011193e-01, 2.75837782e-01, 2.83259753e-01,
       2.87854402e-01, 2.93025505e-01, 3.00681255e-01, 3.09682730e-01,
       3.09743673e-01, 3.17399423e-01, 3.27633731e-01, 3.33491184e-01,
       3.34741999e-01, 3.45288012e-01, 3.52708985e-01, 3.53329397e-01,
       3.61222922e-01, 3.69659932e-01, 3.74159671e-01, 3.78642426e-01,
       3.86688806e-01, 3.96374633e-01, 3.97968124e-01, 4.03795606e-01,
       4.13404506e-01, 4.19795454e-01, 4.21217107e-01, 4.29732044e-01,
       4.38325905e-01, 4.39639661e-01, 4.47545175e-01, 4.55591555e-01,
       4.62458052e-01, 4.65044603e-01, 4.72152871e-01, 4.82152402e-01,
       4.84280386e-01, 4.90276708e-01, 4.99884609e-01, 5.07095780e-01,
       5.08164768e-01, 5.18008446e-01, 5.25742122e-01, 5.29911174e-01,
       5.35194171e-01, 5.42381365e-01, 5.52770526e-01, 5.53719628e-01,
       5.60738980e-01, 5.70191029e-01, 5.77528081e-01, 5.78237409e-01,
       5.88236940e-01, 5.96673950e-01, 6.02328595e-01, 6.05344739e-01,
       6.14015527e-01, 6.23624428e-01, 6.26137048e-01, 6.31513956e-01,
       6.41435561e-01, 6.48310050e-01, 6.49945502e-01, 6.59089842e-01,
       6.66745592e-01, 6.74746016e-01, 6.76745122e-01, 6.84400872e-01,
       6.94321478e-01, 6.99547528e-01, 7.02367858e-01, 7.12289462e-01,
       7.19866287e-01, 7.23355982e-01, 7.29631039e-01, 7.38068050e-01,
       7.47520098e-01, 7.48157495e-01, 7.55488552e-01, 7.64862675e-01,
       7.72831129e-01, 7.72958009e-01, 7.82440029e-01, 7.90798114e-01,
       7.97759522e-01, 8.00172237e-01, 8.08765099e-01, 8.17905444e-01,
       8.22560036e-01, 8.26264527e-01, 8.35638650e-01, 8.44622143e-01,
       8.47361549e-01, 8.52902302e-01, 8.61574089e-01, 8.71104064e-01,
       8.72163062e-01, 8.79150445e-01, 8.89071050e-01, 8.95972514e-01,
       8.97585986e-01, 9.06960109e-01, 9.15006489e-01, 9.20773028e-01,
       9.24693315e-01, 9.32739696e-01, 9.41957966e-01, 9.45574541e-01,
       9.49925421e-01, 9.59065765e-01, 9.68127184e-01, 9.70376054e-01,
       9.76720046e-01, 9.85469760e-01, 9.94375327e-01, 9.95176568e-01,
       1.00000000e+00]), 'y': array([0.00117342, 0.00117453, 0.00123593, 0.00130886, 0.00132048,
       0.00140585, 0.00151506, 0.00159324, 0.0016829 , 0.00170961,
       0.00188557, 0.00191231, 0.00202079, 0.00210689, 0.00217807,
       0.00229069, 0.00230956, 0.00245675, 0.00251226, 0.0026266 ,
       0.00271493, 0.0028136 , 0.00290722, 0.00290951, 0.00306068,
       0.00311218, 0.00325399, 0.00331488, 0.00342963, 0.00351755,
       0.00355508, 0.00371213, 0.00372738, 0.00386902, 0.00390671,
       0.00403544, 0.0041013 , 0.00412581, 0.00418218, 0.00418237,
       0.0041684 , 0.00406246, 0.00400402, 0.0039239 , 0.00380944,
       0.00379744, 0.00366553, 0.00361489, 0.00352958, 0.0034203 ,
       0.00340101, 0.00324823, 0.00321764, 0.00308302, 0.00302305,
       0.00293491, 0.00282847, 0.00280294, 0.00264445, 0.0026258 ,
       0.00251669, 0.00243122, 0.00238035, 0.0022438 , 0.00223667,
       0.00209598, 0.0020502 , 0.00196222, 0.00185562, 0.00183732,
       0.00173396, 0.00167727, 0.00162134, 0.00153954, 0.00150704,
       0.00147183, 0.00140664, 0.00136112, 0.00134651, 0.00131736,
       0.00129823, 0.00129625, 0.00129714, 0.00131408, 0.00133884,
       0.00134492, 0.00138439, 0.00142966, 0.00145843, 0.00148896,
       0.0015269 , 0.00155574, 0.00155587, 0.00156459, 0.00155571,
       0.00153954, 0.00153486, 0.00147915, 0.0014301 , 0.00142603,
       0.00137793, 0.00133706, 0.00132067, 0.00130829, 0.00129629,
       0.00130125, 0.00130447, 0.00132258, 0.00137036, 0.00140986,
       0.00141896, 0.00147225, 0.00151757, 0.00152337, 0.00155112,
       0.00156554, 0.00156392, 0.00155911, 0.00153508, 0.00148568,
       0.00147476, 0.00144586, 0.00140703, 0.00138557, 0.00138309,
       0.00136682, 0.0013582 , 0.00135317, 0.00134537, 0.00133299,
       0.00131427, 0.00131265, 0.00130151, 0.00128871, 0.00128021,
       0.00127945, 0.00126929, 0.00126127, 0.00125592, 0.001253  ,
       0.00124431, 0.00123428, 0.0012316 , 0.00122581, 0.00121543,
       0.00120878, 0.00120729, 0.0011999 , 0.00119494, 0.00119108,
       0.00119035, 0.00118809, 0.0011852 , 0.001183  , 0.00118147,
       0.00117463, 0.00116909, 0.0011668 , 0.00116342, 0.0011603 ,
       0.00115874, 0.00115871, 0.00115878, 0.00115928, 0.00115874,
       0.00115871, 0.00115591, 0.0011527 , 0.00115063, 0.00115018,
       0.00114967, 0.00115024, 0.00115063, 0.00115085, 0.00115107,
       0.00115082, 0.00115063, 0.00115021, 0.00114974, 0.00115044,
       0.00115066, 0.00115279, 0.00115671, 0.00115878, 0.00115906,
       0.00115963, 0.00115919, 0.00115878, 0.00115862, 0.00115858,
       0.00115874, 0.00115881, 0.00115884, 0.00115887, 0.00115881,
       0.00115881, 0.00115881, 0.00115881, 0.00115881, 0.00115884,
       0.00115884])}}
Warp 1.6.0 initialized:
   CUDA Toolkit 12.8, Driver 12.8
   Devices:
     "cpu"      : "x86_64"
     "cuda:0"   : "NVIDIA GeForce RTX 3060 Laptop GPU" (6 GiB, sm_86, mempool enabled)
   Kernel cache:
     /home/abdua786/.cache/warp/1.6.0
WARNING: Profile data has 201 points, expected 64.
Loading profile data into matrices: min=0.001150 LU, max=0.004182 LU
Profile has 201 values, resampling to 64...
Profile data loaded into global mat44 matrices
Output directories exist. Would you like to clear them? (y/n): [DirectBC] t=0.000000, normalized_time=0.000000, csv_velocity=0.001173
[DirectBC] t=0.100000, normalized_time=0.100000, csv_velocity=0.002714
Cleaning up previous simulation outputs...
Cleanup complete.
registered bc DirectTimeDependentBC_8476884087244 with id 1
[[0.0011734175495803356, 0.001310887048020959, 0.0015423594741150737, 0.0018017810070887208],
 [0.0020809255074709654, 0.002307164017111063, 0.002630803966894746, 0.00290772900916636],
 [0.003168452065438032, 0.003479868173599243, 0.0037235047202557325, 0.00402522087097168],
 [0.004182196222245693, 0.004046691581606865, 0.0038041037041693926, 0.0035620771814137697]]
Using CSV flow profile: Velocity profile_CCA
  Profile duration: 1.0000 seconds
  Profile max velocity: 0.0042
  Profile points: 201
registered bc FullwayBounceBackBC_8476883995901 with id 2
registered bc ExtrapolationOutflowBC_8476884002570 with id 3
Module xlb.operator.equilibrium.quadratic_equilibrium 28bc289 load on device 'cuda:0' took 1100.20 ms  (compiled)
Module xlb.operator.boundary_masker.indices_boundary_masker eefde56 load on device 'cuda:0' took 1088.05 ms  (compiled)
Running simulation for 1.0000 seconds
Time step: 1.00e-05 seconds
Total steps: 100,000
Starting simulation with backend: ComputeBackend.WARP
Boundary conditions: ['FullwayBounceBackBC', 'DirectTimeDependentBC', 'ExtrapolationOutflowBC']
Module xlb.operator.stepper.nse_stepper cd117d9 load on device 'cuda:0' took 9085.86 ms  (compiled)

Step 0/100000 (0.0%)
Simulation Statistics:
├── Current MLUPS: 0.04
├── Average MLUPS: 0.04
├── Step time: 9098.96ms
└── ETA: 10 days, 12:44:55
Saved aneurysm_simulation/vtk/aneurysm_0000000.vtk in 0.048716 seconds.
Saving image with vmin=0.0, vmax=0.15000000000000002
rho values: 1.0 1.0
u_x values: 0.0 0.0
u_y values: 0.0 0.0
u_magnitude values: 0.0 0.0

Post-processing time: 2.396s

Step 1000/100000 (1.0%)
Simulation Statistics:
├── Current MLUPS: 2101.87
├── Average MLUPS: 2104.21
├── Step time: 0.19ms
└── ETA: 0:00:18
Saved aneurysm_simulation/vtk/aneurysm_0001000.vtk in 0.046606 seconds.
Saving image with vmin=0.0, vmax=0.15000000000000002
rho values: 0.9960569 1.0
u_x values: -0.0014802548 0.00032742778
u_y values: -0.00047082175 0.00071999256
u_magnitude values: 0.0 0.0014811534

Post-processing time: 0.206s

Step 2000/100000 (2.0%)
Simulation Statistics:
├── Current MLUPS: 2133.84
├── Average MLUPS: 2152.13
├── Step time: 0.19ms
└── ETA: 0:00:18
Saved aneurysm_simulation/vtk/aneurysm_0002000.vtk in 0.046636 seconds.
Saving image with vmin=0.0, vmax=0.15000000000000002
rho values: 0.9955908 1.0
u_x values: -0.0017341847 0.00035605844
u_y values: -0.00051268464 0.0008032827
u_magnitude values: 0.0 0.0017341847

Post-processing time: 0.209s

Step 3000/100000 (3.0%)
